Freq	Gain	Phase
1.00000000000000e-001	5.85444284985050e+001	1.79313210025624e+002
1.07977516232771e-001	5.85442952077696e+001	1.79243306448441e+002
1.16591440117983e-001	5.85441392469174e+001	1.79168948636441e+002
1.25892541179417e-001	5.85439569371963e+001	1.79089695572285e+002
1.35935639087853e-001	5.85437439790228e+001	1.79005074657738e+002
1.46779926762207e-001	5.85434953467798e+001	1.78914600806585e+002
1.58489319246111e-001	5.85432051778188e+001	1.78817737820879e+002
1.71132830416178e-001	5.85428666313007e+001	1.78713909905040e+002
1.84784979742229e-001	5.85424717244007e+001	1.78602520158415e+002
1.99526231496888e-001	5.85420111507357e+001	1.78482911313325e+002
2.15443469003188e-001	5.85414740595843e+001	1.78354376572730e+002
2.32630506715363e-001	5.85408478017728e+001	1.78216155814918e+002
2.51188643150958e-001	5.85401176309736e+001	1.78067460300189e+002
2.71227257933203e-001	5.85392663660679e+001	1.77907410810848e+002
2.92864456462524e-001	5.85382739859268e+001	1.77735076185031e+002
3.16227766016838e-001	5.85371171656996e+001	1.77549454033238e+002
3.41454887383360e-001	5.85357687370885e+001	1.77349451163947e+002
3.68694506451958e-001	5.85341970570333e+001	1.77133921249597e+002
3.98107170553497e-001	5.85323652816145e+001	1.76901630301385e+002
4.29866234708228e-001	5.85302305243170e+001	1.76651193117127e+002
4.64158883361278e-001	5.85277428682494e+001	1.76381210846917e+002
5.01187233627272e-001	5.85248442410500e+001	1.76090149487533e+002
5.41169526546464e-001	5.85214671051626e+001	1.75776333305900e+002
5.84341413373518e-001	5.85175329467441e+001	1.75437938218589e+002
6.30957344480193e-001	5.85129505289671e+001	1.75073157828592e+002
6.81292069057961e-001	5.85076139029869e+001	1.74679938216535e+002
7.35642254459641e-001	5.85014001103221e+001	1.74256029559918e+002
7.94328234724282e-001	5.84941665549175e+001	1.73799211008521e+002
8.57695898590894e-001	5.84857480230699e+001	1.73306970028925e+002
9.26118728128794e-001	5.84759532862314e+001	1.72776758429455e+002
1.00000000000000e+000	5.84645612778430e+001	1.72205703756147e+002
1.07977516232771e+000	5.84513167857320e+001	1.71590956013281e+002
1.16591440117983e+000	5.84359256632032e+001	1.70929462350622e+002
1.25892541179417e+000	5.84180495270854e+001	1.70218091072694e+002
1.35935639087853e+000	5.83972999621223e+001	1.69453415684294e+002
1.46779926762207e+000	5.83732322553692e+001	1.68632023129047e+002
1.58489319246111e+000	5.83453387442996e+001	1.67750542218374e+002
1.71132830416178e+000	5.83130418991165e+001	1.66805336271263e+002
1.84784979742229e+000	5.82756873170546e+001	1.65792897133907e+002
1.99526231496888e+000	5.82325369129335e+001	1.64709906744449e+002
2.15443469003188e+000	5.81827626626318e+001	1.63552852794562e+002
2.32630506715363e+000	5.81254413871911e+001	1.62318925629662e+002
2.51188643150958e+000	5.80595511720104e+001	1.61005435877094e+002
2.71227257933203e+000	5.79839701578684e+001	1.59610053868911e+002
2.92864456462524e+000	5.78974785332974e+001	1.58131179305554e+002
3.16227766016838e+000	5.77987646420547e+001	1.56567978070798e+002
3.41454887383360e+000	5.76864361166080e+001	1.54920541550593e+002
3.68694506451958e+000	5.75590368684681e+001	1.53190046163663e+002
3.98107170553497e+000	5.74150705386211e+001	1.51378903417422e+002
4.29866234708228e+000	5.72530306354669e+001	1.49490888531457e+002
4.64158883361278e+000	5.70714370473165e+001	1.47531234032521e+002
5.01187233627272e+000	5.68688779316808e+001	1.45506904351669e+002
5.41169526546464e+000	5.66440551931640e+001	1.43425657955060e+002
5.84341413373518e+000	5.63958311117562e+001	1.41297568694529e+002
6.30957344480193e+000	5.61232728797912e+001	1.39132789439668e+002
6.81292069057961e+000	5.58256918252307e+001	1.36944073446111e+002
7.35642254459641e+000	5.55026737561979e+001	1.34743479654957e+002
7.94328234724281e+000	5.51540979112140e+001	1.32543863055733e+002
8.57695898590894e+000	5.47801425366968e+001	1.30357580542361e+002
9.26118728128793e+000	5.43812766704438e+001	1.28197500025943e+002
1.00000000000000e+001	5.39582388167575e+001	1.26075737159318e+002
1.07977516232771e+001	5.35120045905804e+001	1.24002902752264e+002
1.16591440117983e+001	5.30437462353802e+001	1.21987416756493e+002
1.25892541179417e+001	5.25547874482673e+001	1.20037657922253e+002
1.35935639087853e+001	5.20465567240626e+001	1.18160048345365e+002
1.46779926762207e+001	5.15205423944706e+001	1.16359508802632e+002
1.58489319246111e+001	5.09782516659204e+001	1.14639513651798e+002
1.71132830416178e+001	5.04211752840312e+001	1.13002192111661e+002
1.84784979742229e+001	4.98507586803638e+001	1.11448461854926e+002
1.99526231496888e+001	4.92683798014328e+001	1.09978181533218e+002
2.15443469003188e+001	4.86753332899734e+001	1.08589390550970e+002
2.32630506715363e+001	4.80728204513652e+001	1.07282147774642e+002
2.51188643150958e+001	4.74619439212939e+001	1.06053160109769e+002
2.71227257933203e+001	4.68437064239200e+001	1.04899599582528e+002
2.92864456462524e+001	4.62190124861725e+001	1.03818304072845e+002
3.16227766016838e+001	4.55886723863074e+001	1.02805881667955e+002
3.41454887383360e+001	4.49534076166924e+001	1.01858798645284e+002
3.68694506451957e+001	4.43138572818920e+001	1.00973452001198e+002
3.98107170553497e+001	4.36705849743310e+001	1.00146227918048e+002
4.29866234708228e+001	4.30240857804397e+001	9.93735477847425e+001
4.64158883361278e+001	4.23747931647242e+001	9.86519034623753e+001
5.01187233627272e+001	4.17230855579586e+001	9.79778834184655e+001
5.41169526546464e+001	4.10692925372305e+001	9.73481912566999e+001
5.84341413373518e+001	4.04137005336564e+001	9.67596580024389e+001
6.30957344480193e+001	3.97565580393192e+001	9.62092493271918e+001
6.81292069057961e+001	3.90980803099953e+001	9.56940687466930e+001
7.35642254459641e+001	3.84384535784675e+001	9.52113576365055e+001
7.94328234724281e+001	3.77778388042218e+001	9.47584927903815e+001
8.57695898590894e+001	3.71163749923518e+001	9.43329821031532e+001
9.26118728128793e+001	3.64541821181494e+001	9.39324588486355e+001
1.00000000000000e+002	3.57913636947513e+001	9.35546749313976e+001
1.07977516232771e+002	3.51280090208009e+001	9.31974934161478e+001
1.16591440117983e+002	3.44641951435898e+001	9.28588805583766e+001
1.25892541179417e+002	3.37999885707546e+001	9.25368975223129e+001
1.35935639087853e+002	3.31354467612082e+001	9.22296919137316e+001
1.46779926762207e+002	3.24706194231368e+001	9.19354892304312e+001
1.58489319246111e+002	3.18055496443716e+001	9.16525842948463e+001
1.71132830416178e+002	3.11402748777697e+001	9.13793327163433e+001
1.84784979742229e+002	3.04748278019086e+001	9.11141424102271e+001
1.99526231496888e+002	2.98092370752194e+001	9.08554651859240e+001
2.15443469003188e+002	2.91435279997274e+001	9.06017884031623e+001
2.32630506715363e+002	2.84777231088753e+001	9.03516266899598e+001
2.51188643150958e+002	2.78118426923873e+001	9.01035137045775e+001
2.71227257933203e+002	2.71459052699217e+001	8.98559939221373e+001
2.92864456462524e+002	2.64799280241607e+001	8.96076144167796e+001
3.16227766016838e+002	2.58139272031783e+001	8.93569166135807e+001
3.41454887383360e+002	2.51479185012833e+001	8.91024279749567e+001
3.68694506451957e+002	2.44819174270553e+001	8.88426535907440e+001
3.98107170553497e+002	2.38159396670157e+001	8.85760676329427e+001
4.29866234708228e+002	2.31500014533205e+001	8.83011046421139e+001
4.64158883361278e+002	2.24841199438556e+001	8.80161506064249e+001
5.01187233627272e+002	2.18183136234412e+001	8.77195337985865e+001
5.41169526546464e+002	2.11526027352694e+001	8.74095153342494e+001
5.84341413373517e+002	2.04870084983475e+001	8.70548357302746e+001
6.30957344480193e+002	1.98215598986269e+001	8.67419232422867e+001
6.81292069057961e+002	1.91562817339927e+001	8.63804465227506e+001
7.35642254459641e+002	1.84912078112125e+001	8.59977406269816e+001
7.94328234724281e+002	1.78263754235021e+001	8.55915773007117e+001
8.57695898590894e+002	1.71618274554998e+001	8.51595969717333e+001
9.26118728128793e+002	1.64976133560124e+001	8.46992966413633e+001
1.00000000000000e+003	1.58337853457739e+001	8.41491300528473e+001
1.07977516232771e+003	1.51704192949212e+001	8.36240441568810e+001
1.16591440117983e+003	1.45075917630578e+001	8.31210292889182e+001
1.25892541179417e+003	1.38453764794263e+001	8.24602185979733e+001
1.35935639087853e+003	1.31838958814138e+001	8.18737477491706e+001
1.46779926762207e+003	1.25232537952327e+001	8.11813193410498e+001
1.58489319246111e+003	1.18635926040965e+001	8.04379503846657e+001
1.71132830416178e+003	1.12050711657404e+001	7.96395235956630e+001
1.84784979742229e+003	1.05478729429121e+001	7.87816636165822e+001
1.99526231496888e+003	9.89220953332135e+000	7.78597275551407e+001
2.15443469003188e+003	9.23832459091536e+000	7.68687977781365e+001
2.32630506715363e+003	8.58649814138414e+000	7.58036777394695e+001
2.51188643150958e+003	7.93705127645778e+000	7.46588917757284e+001
2.71227257933203e+003	7.29033122888702e+000	7.33109159709459e+001
2.92864456462524e+003	6.64681644680971e+000	7.21070593875389e+001
3.16227766016838e+003	6.00692245235622e+000	7.06877430489312e+001
3.41454887383360e+003	5.37120677772266e+000	6.91642683533598e+001
3.68694506451957e+003	4.74019649392537e+000	6.72944405484730e+001
3.98107170553497e+003	4.11480119880158e+000	6.57781245351720e+001
4.29866234708228e+003	3.49553886101952e+000	6.39018517981115e+001
4.64158883361278e+003	2.88331458131356e+000	6.18943613915557e+001
5.01187233627272e+003	2.27903081476337e+000	5.97489676846053e+001
5.41169526546464e+003	1.68366060685791e+000	5.74592190742012e+001
5.84341413373518e+003	1.09823871801802e+000	5.50190242887915e+001
6.30957344480193e+003	5.23847328975684e-001	5.24227886616753e+001
6.81292069057961e+003	-3.84046952585452e-002	4.96655547405344e+001
7.35642254459641e+003	-5.87409871652331e-001	4.67431393416289e+001
7.94328234724281e+003	-1.12209810671241e+000	4.36522569902669e+001
8.57695898590894e+003	-1.64148081618285e+000	4.03906180168893e+001
9.26118728128794e+003	-2.14470272931318e+000	3.69569889103303e+001
1.00000000000000e+004	-2.63141646816932e+000	3.28801476228228e+001
1.07977516232771e+004	-3.10058222903169e+000	2.91030651701190e+001
1.16591440117983e+004	-3.55210569526758e+000	2.56274927647221e+001
1.25892541179417e+004	-3.98691849869600e+000	2.15138482321184e+001
1.35935639087853e+004	-4.40544003865809e+000	1.72362333541977e+001
1.46779926762207e+004	-4.81014045172557e+000	1.18560300747857e+001
1.58489319246111e+004	-5.19907591334391e+000	8.20259936119485e+000
1.71132830416178e+004	-5.57829571832632e+000	3.45335975105781e+000
1.84784979742229e+004	-5.94948130845597e+000	-1.44656092467953e+000
1.99526231496888e+004	-6.31613702067092e+000	-6.49416464030578e+000
2.15443469003188e+004	-6.68359810593410e+000	-1.26282556668515e+001
2.32630506715363e+004	-7.05270554119416e+000	-1.70198885813231e+001
2.51188643150958e+004	-7.43234522396304e+000	-2.24901849147446e+001
2.71227257933203e+004	-7.82678279956805e+000	-2.80912505270832e+001
2.92864456462524e+004	-8.24185238297794e+000	-3.38145268676241e+001
3.16227766016838e+004	-8.68355503947077e+000	-3.96480839818510e+001
3.41454887383360e+004	-9.15787648297347e+000	-4.55758252267496e+001
3.68694506451958e+004	-9.67056686883845e+000	-5.15769052111564e+001
3.98107170553497e+004	-1.02268925351901e+001	-5.76255062746782e+001
4.29866234708228e+004	-1.08313790604697e+001	-6.36910959026797e+001
4.64158883361278e+004	-1.14875734286944e+001	-6.97392283112953e+001
5.01187233627272e+004	-1.21978570974956e+001	-7.57328631259239e+001
5.41169526546464e+004	-1.29633386193192e+001	-8.16340720528831e+001
5.84341413373518e+004	-1.37838435921855e+001	-8.74059202210872e+001
6.30957344480193e+004	-1.46580034967497e+001	-9.30142705481210e+001
6.81292069057961e+004	-1.55834280837611e+001	-9.84292804898498e+001
7.35642254459641e+004	-1.65569333967783e+001	-1.03626432771143e+002
7.94328234724282e+004	-1.75747923832941e+001	-1.08587039713179e+002
8.57695898590894e+004	-1.86329775649213e+001	-1.13298254124522e+002
9.26118728128793e+004	-1.97273731336695e+001	-1.17752685703464e+002
1.00000000000000e+005	-2.08539438173620e+001	-1.21947751948215e+002
1.07977516232771e+005	-2.20088570392385e+001	-1.25884890930014e+002
1.16591440117983e+005	-2.31885616183163e+001	-1.29568741142997e+002
1.25892541179417e+005	-2.43898301002366e+001	-1.33006363020786e+002
1.35935639087853e+005	-2.56097731954854e+001	-1.36206546672662e+002
1.46779926762207e+005	-2.68458345083697e+001	-1.39179225955243e+002
1.58489319246111e+005	-2.81703725306131e+001	-1.49419901679418e+002
1.71132830416178e+005	-2.93576353729296e+001	-1.44484766884561e+002
1.84784979742229e+005	-3.06297321046171e+001	-1.46839419396959e+002
1.99526231496888e+005	-3.19106035207927e+001	-1.49009649872627e+002
2.15443469003188e+005	-3.34893419165748e+001	-1.65728192495156e+002
2.32630506715363e+005	-3.44938247290179e+001	-1.52837695608391e+002
2.51188643150958e+005	-3.60844631012557e+001	-1.69237170289274e+002
2.71227257933203e+005	-3.70992402531180e+001	-1.56045527811974e+002
2.92864456462524e+005	-3.84083535025033e+001	-1.57438323177460e+002
3.16227766016838e+005	-3.97209296143399e+001	-1.58700594166106e+002
3.41454887383360e+005	-4.10364710327719e+001	-1.59839233379944e+002
3.68694506451958e+005	-4.23545517756605e+001	-1.60860519458801e+002
3.98107170553497e+005	-4.36748070708708e+001	-1.61770127028672e+002
4.29866234708228e+005	-4.60564108064662e+001	1.69703827880123e+002
4.64158883361278e+005	-4.63206362011095e+001	-1.63274059480913e+002
5.01187233627272e+005	-4.76457126813656e+001	-1.63876827231096e+002
5.41169526546464e+005	-4.89719568558718e+001	-1.64384827173508e+002
5.84341413373517e+005	-5.02991993924636e+001	-1.64800900965931e+002
6.30957344480193e+005	-5.16272945030135e+001	-1.65127355097461e+002
6.81292069057961e+005	-5.29561163128291e+001	-1.65365966369796e+002
7.35642254459641e+005	-5.42855556702021e+001	-1.65517984276961e+002
7.94328234724281e+005	-5.56155172992245e+001	-1.65584129846031e+002
8.57695898590894e+005	-5.69459172010553e+001	-1.65564590476368e+002
9.26118728128793e+005	-5.82766802062820e+001	-1.65459010265572e+002
1.00000000000000e+006	-6.28400001067590e+001	1.48307593051852e+002