Freq	Gain	Phase
1.00000000000000e-003	4.37797309913632e+001	-7.39467816708837e+001
1.07977516232771e-003	4.47235804008922e+001	-7.56746023256076e+001
1.16591440117983e-003	4.56474372597433e+001	-7.75944105401014e+001
1.25892541179417e-003	4.65484663193373e+001	-7.96957966678936e+001
1.35935639087853e-003	4.74241090262012e+001	-8.19666840872670e+001
1.46779926762207e-003	4.82721025795899e+001	-8.43937025233164e+001
1.58489319246111e-003	4.90904853637624e+001	-8.69625504126725e+001
1.71132830416178e-003	4.98775902968388e+001	-8.96583215284335e+001
1.84784979742229e-003	5.06320288597700e+001	-9.24657755082911e+001
1.99526231496888e-003	5.13526694817938e+001	-9.53695402358321e+001
2.15443469003188e-003	5.20386143769487e+001	-9.83542423537565e+001
2.32630506715363e-003	5.26891787427090e+001	-1.01404574063992e+002
2.51188643150958e-003	5.33038754554625e+001	-1.04505312075047e+002
2.71227257933203e-003	5.38824071646051e+001	-1.07641311098472e+002
2.92864456462524e-003	5.44246661589534e+001	-1.10797497232789e+002
3.16227766016838e-003	5.49307408209875e+001	-1.13958885011002e+002
3.41454887383360e-003	5.54009261791652e+001	-1.17110636117883e+002
3.68694506451958e-003	5.58357352707565e+001	-1.20238168722980e+002
3.98107170553497e-003	5.62359075949198e+001	-1.23327318777327e+002
4.29866234708228e-003	5.66024114977566e+001	-1.26364541986161e+002
4.64158883361278e-003	5.69364379965068e+001	-1.29337140485535e+002
5.01187233627272e-003	5.72393851099212e+001	-1.32233490579645e+002
5.41169526546464e-003	5.75128326232191e+001	-1.35043251771956e+002
5.84341413373518e-003	5.77585091699702e+001	-1.37757534060375e+002
6.30957344480193e-003	5.79782535849704e+001	-1.40369012675504e+002
6.81292069057961e-003	5.81739737878482e+001	-1.42871980183594e+002
7.35642254459641e-003	5.83476054837715e+001	-1.45262339127403e+002
7.94328234724281e-003	5.85010739562976e+001	-1.47537536689035e+002
8.57695898590894e-003	5.86362600435138e+001	-1.49696455652810e+002
9.26118728128793e-003	5.87549720774714e+001	-1.51739270821246e+002
1.00000000000000e-002	5.88589241047188e+001	-1.53667284651351e+002
1.07977516232771e-002	5.89497203681159e+001	-1.55482753607380e+002
1.16591440117983e-002	5.90288456909774e+001	-1.57188714700750e+002
1.25892541179417e-002	5.90976607296117e+001	-1.58788820648964e+002
1.35935639087853e-002	5.91574016049906e+001	-1.60287187686017e+002
1.46779926762207e-002	5.92091827941463e+001	-1.61688259952715e+002
1.58489319246111e-002	5.92540023515385e+001	-1.62996692024945e+002
1.71132830416178e-002	5.92927489460592e+001	-1.64217249153400e+002
1.84784979742229e-002	5.93262097055832e+001	-1.65354725220148e+002
1.99526231496888e-002	5.93550789204669e+001	-1.66413875903220e+002
2.15443469003188e-002	5.93799665171528e+001	-1.67399366668895e+002
2.32630506715363e-002	5.94014066163381e+001	-1.68315732610865e+002
2.51188643150958e-002	5.94198655177718e+001	-1.69167349089478e+002
2.71227257933203e-002	5.94357493964271e+001	-1.69958410810471e+002
2.92864456462524e-002	5.94494112811658e+001	-1.70692918303738e+002
3.16227766016838e-002	5.94611573888145e+001	-1.71374670217047e+002
3.41454887383360e-002	5.94712529228462e+001	-1.72007260113225e+002
3.68694506451957e-002	5.94799273205163e+001	-1.72594076832155e+002
3.98107170553497e-002	5.94873787437815e+001	-1.73138307776040e+002
4.29866234708228e-002	5.94937782353806e+001	-1.73642944056424e+002
4.64158883361278e-002	5.94992732791702e+001	-1.74110787227630e+002
5.01187233627272e-002	5.95039909333422e+001	-1.74544457026656e+002
5.41169526546463e-002	5.95080406274118e+001	-1.74946399736966e+002
5.84341413373517e-002	5.95115165401982e+001	-1.75318896978052e+002
6.30957344480193e-002	5.95144996525076e+001	-1.75664074651581e+002
6.81292069057961e-002	5.95170596107082e+001	-1.75983911828147e+002
7.35642254459641e-002	5.95192562418885e+001	-1.76280249553271e+002
7.94328234724281e-002	5.95211410354200e+001	-1.76554799340529e+002
8.57695898590893e-002	5.95227581684646e+001	-1.76809151490266e+002
9.26118728128793e-002	5.95241455491861e+001	-1.77044782978629e+002
9.99999999999999e-002	5.95253357939352e+001	-1.77263064959694e+002
1.07977516232771e-001	5.95263569063461e+001	-1.77465269948589e+002
1.16591440117983e-001	5.95272328372028e+001	-1.77652578605026e+002
1.25892541179417e-001	5.95279842449050e+001	-1.77826086043118e+002
1.35935639087852e-001	5.95286288073317e+001	-1.77986807867775e+002
1.46779926762207e-001	5.95291817130461e+001	-1.78135685765708e+002
1.58489319246111e-001	5.95296560005039e+001	-1.78273592764138e+002
1.71132830416178e-001	5.95300628218400e+001	-1.78401338148701e+002
1.84784979742229e-001	5.95304117496968e+001	-1.78519672035676e+002
1.99526231496888e-001	5.95307110850727e+001	-1.78629289632157e+002
2.15443469003188e-001	5.95309677884354e+001	-1.78730835258445e+002
2.32630506715362e-001	5.95311880073435e+001	-1.78824905993221e+002
2.51188643150958e-001	5.95313768829017e+001	-1.78912055170211e+002
2.71227257933203e-001	5.95315388943883e+001	-1.78992795546601e+002
2.92864456462523e-001	5.95316778479295e+001	-1.79067602294389e+002
3.16227766016838e-001	5.95317970323281e+001	-1.79136915755334e+002
3.41454887383360e-001	5.95318992481234e+001	-1.79201144011646e+002
3.68694506451957e-001	5.95319869267902e+001	-1.79260665262398e+002
3.98107170553497e-001	5.95320621273409e+001	-1.79315830039591e+002
4.29866234708227e-001	5.95321266485899e+001	-1.79366963253804e+002
4.64158883361277e-001	5.95321819609244e+001	-1.79414366105136e+002
5.01187233627272e-001	5.95322293878309e+001	-1.79458317838569e+002
5.41169526546463e-001	5.95322700994481e+001	-1.79499077386138e+002
5.84341413373517e-001	5.95323049868753e+001	-1.79536884895339e+002
6.30957344480192e-001	5.95323349247240e+001	-1.79571963126211e+002
6.81292069057960e-001	5.95323605963466e+001	-1.79604518771240e+002
7.35642254459640e-001	5.95323826209406e+001	-1.79634743664890e+002
7.94328234724281e-001	5.95324015027050e+001	-1.79662815914256e+002
8.57695898590893e-001	5.95324177042446e+001	-1.79688900945855e+002
9.26118728128792e-001	5.95324315775949e+001	-1.79713152480588e+002
9.99999999999999e-001	5.95324434923032e+001	-1.79735713435079e+002
1.07977516232771e+000	5.95324536860376e+001	-1.79756716768694e+002
1.16591440117983e+000	5.95324624376785e+001	-1.79776286260168e+002
1.25892541179417e+000	5.95324699282999e+001	-1.79794537242092e+002
1.35935639087852e+000	5.95324763619715e+001	-1.79811577275680e+002
1.46779926762207e+000	5.95324818650250e+001	-1.79827506788018e+002
1.58489319246111e+000	5.95324865535276e+001	-1.79842419662180e+002
1.71132830416178e+000	5.95324905973227e+001	-1.79856403787716e+002
1.84784979742229e+000	5.95324940195863e+001	-1.79869541584550e+002
1.99526231496888e+000	5.95324969535805e+001	-1.79881910482030e+002
2.15443469003188e+000	5.95324994437854e+001	-1.79893583379701e+002
2.32630506715362e+000	5.95325015572100e+001	-1.79904629075253e+002
2.51188643150958e+000	5.95325033598863e+001	-1.79915112668136e+002
2.71227257933202e+000	5.95325048537195e+001	-1.79925095948813e+002
2.92864456462523e+000	5.95325061179747e+001	-1.79934637755383e+002
3.16227766016838e+000	5.95325071483777e+001	-1.79943794326344e+002
3.41454887383360e+000	5.95325079962019e+001	-1.79952619628962e+002
3.68694506451957e+000	5.95325086517327e+001	-1.79961165677875e+002
3.98107170553497e+000	5.95325091413849e+001	-1.79969482843099e+002
4.29866234708227e+000	5.95325095063558e+001	-1.79977620143714e+002
4.64158883361277e+000	5.95325097079360e+001	-1.79985625539122e+002
5.01187233627272e+000	5.95325097943476e+001	-1.79993546214071e+002
5.41169526546463e+000	5.95325097286402e+001	1.79998571147977e+002
5.84341413373517e+000	5.95325095472186e+001	1.79990680089676e+002
6.30957344480192e+000	5.95325092235775e+001	1.79982734101058e+002
6.81292069057960e+000	5.95325087319116e+001	1.79974686349790e+002
7.35642254459640e+000	5.95325081064364e+001	1.79966489403068e+002
7.94328234724280e+000	5.95325072982111e+001	1.79958094950672e+002
8.57695898590893e+000	5.95325062971590e+001	1.79949453516048e+002
9.26118728128792e+000	5.95325050751973e+001	1.79940514169956e+002
9.99999999999998e+000	5.95325035933281e+001	1.79931224223115e+002
1.07977516232771e+001	5.95325018535891e+001	1.79921528920169e+002
1.16591440117983e+001	5.95324997915531e+001	1.79911371123356e+002
1.25892541179417e+001	5.95324973706335e+001	1.79900690965153e+002
1.35935639087852e+001	5.95324944961152e+001	1.79889425494582e+002
1.46779926762207e+001	5.95324911517275e+001	1.79877508319308e+002
1.58489319246111e+001	5.95324872224174e+001	1.79864869206623e+002
1.71132830416178e+001	5.95324826292156e+001	1.79851433661670e+002
1.84784979742229e+001	5.95324772633530e+001	1.79837122499897e+002
1.99526231496888e+001	5.95324709843639e+001	1.79821851376004e+002
2.15443469003188e+001	5.95324636649099e+001	1.79805530298097e+002
2.32630506715362e+001	5.95324551208126e+001	1.79788063072537e+002
2.51188643150958e+001	5.95324451533669e+001	1.79769346758556e+002
2.71227257933202e+001	5.95324335248748e+001	1.79749271056822e+002
2.92864456462523e+001	5.95324199731380e+001	1.79727717664100e+002
3.16227766016837e+001	5.95324041633326e+001	1.79704559559267e+002
3.41454887383360e+001	5.95323857262296e+001	1.79679660273501e+002
3.68694506451957e+001	5.95323642258719e+001	1.79652873089997e+002
3.98107170553497e+001	5.95323391512937e+001	1.79624040165751e+002
4.29866234708227e+001	5.95323099276048e+001	1.79592991595488e+002
4.64158883361277e+001	5.95322758333452e+001	1.79559544464347e+002
5.01187233627271e+001	5.95322360761655e+001	1.79523501702342e+002
5.41169526546463e+001	5.95321897274250e+001	1.79484650981125e+002
5.84341413373517e+001	5.95321357251616e+001	1.79442763403684e+002
6.30957344480192e+001	5.95320727342525e+001	1.79397592289221e+002
6.81292069057960e+001	5.95319992739224e+001	1.79348871557355e+002
7.35642254459640e+001	5.95319136612043e+001	1.79296314315218e+002
7.94328234724280e+001	5.95318138124160e+001	1.79239611091276e+002
8.57695898590892e+001	5.95316973977816e+001	1.79178428054525e+002
9.26118728128792e+001	5.95315617187756e+001	1.79112405071888e+002
9.99999999999998e+001	5.95314035084584e+001	1.79041153609248e+002
1.07977516232771e+002	5.95312190140994e+001	1.78964254501642e+002
1.16591440117983e+002	5.95310039758786e+001	1.78881255436361e+002
1.25892541179416e+002	5.95307532548894e+001	1.78791668422439e+002
1.35935639087852e+002	5.95304609619312e+001	1.78694966948105e+002
1.46779926762207e+002	5.95301201827038e+001	1.78590582959020e+002
1.58489319246111e+002	5.95297229072548e+001	1.78477903614420e+002
1.71132830416178e+002	5.95292597495748e+001	1.78356267783229e+002
1.84784979742229e+002	5.95287198191603e+001	1.78224962358862e+002
1.99526231496888e+002	5.95280903541211e+001	1.78083218177236e+002
2.15443469003188e+002	5.95273566242401e+001	1.77930205793352e+002
2.32630506715362e+002	5.95265012708132e+001	1.77765030862876e+002
2.51188643150958e+002	5.95255042426941e+001	1.77586729392851e+002
2.71227257933202e+002	5.95243420580644e+001	1.77394262323487e+002
2.92864456462523e+002	5.95229874400202e+001	1.77186510291158e+002
3.16227766016837e+002	5.95214085969379e+001	1.76962267676202e+002
3.41454887383360e+002	5.95195685338085e+001	1.76720236543195e+002
3.68694506451957e+002	5.95174241155678e+001	1.76459020169390e+002
3.98107170553496e+002	5.95149252596800e+001	1.76177116373585e+002
4.29866234708227e+002	5.95120135755958e+001	1.75872910850444e+002
4.64158883361277e+002	5.95086212053555e+001	1.75544669710184e+002
5.01187233627271e+002	5.95046693270552e+001	1.75190532655115e+002
5.41169526546463e+002	5.95000662273838e+001	1.74808505961788e+002
5.84341413373517e+002	5.94947054680580e+001	1.74396454905130e+002
6.30957344480192e+002	5.94884635360199e+001	1.73952097947433e+002
6.81292069057960e+002	5.94811970924570e+001	1.73473000591986e+002
7.35642254459640e+002	5.94727401676643e+001	1.72956569805302e+002
7.94328234724280e+002	5.94629005475653e+001	1.72400051144683e+002
8.57695898590893e+002	5.94514560733841e+001	1.71800526145936e+002
9.26118728128792e+002	5.94381502434357e+001	1.71154913328533e+002
9.99999999999998e+002	5.94226873359235e+001	1.70459971694873e+002
1.07977516232771e+003	5.94047271555104e+001	1.69712309088127e+002
1.16591440117983e+003	5.93838791321204e+001	1.68908393761342e+002
1.25892541179416e+003	5.93596959733624e+001	1.68044574833421e+002
1.35935639087852e+003	5.93316670087011e+001	1.67117109103207e+002
1.46779926762207e+003	5.92992111256292e+001	1.66122196189727e+002
1.58489319246111e+003	5.92616695900573e+001	1.65056026262535e+002
1.71132830416178e+003	5.92182991982519e+001	1.63914840349389e+002
1.84784979742229e+003	5.91682658174218e+001	1.62695003806925e+002
1.99526231496888e+003	5.91106389606620e+001	1.61393094293971e+002
2.15443469003188e+003	5.90443879400916e+001	1.60006008820805e+002
2.32630506715362e+003	5.89683803597230e+001	1.58531086529789e+002
2.51188643150957e+003	5.88813838360311e+001	1.56966242820460e+002
2.71227257933202e+003	5.87820715691406e+001	1.55310121699422e+002
2.92864456462523e+003	5.86690331353032e+001	1.53562251044994e+002
3.16227766016837e+003	5.85407907831047e+001	1.51723199496149e+002
3.41454887383359e+003	5.83958223546052e+001	1.49794724574457e+002
3.68694506451957e+003	5.82325906263322e+001	1.47779899083556e+002
3.98107170553496e+003	5.80495790994461e+001	1.45683201840382e+002
4.29866234708227e+003	5.78453329232587e+001	1.43510563467241e+002
4.64158883361277e+003	5.76185034634401e+001	1.41269341301263e+002
5.01187233627271e+003	5.73678938419761e+001	1.38968237588224e+002
5.41169526546462e+003	5.70925023190655e+001	1.36617122956477e+002
5.84341413373516e+003	5.67915601966933e+001	1.34226805869893e+002
6.30957344480192e+003	5.64645608076254e+001	1.31808721156782e+002
6.81292069057960e+003	5.61112767816418e+001	1.29374586123916e+002
7.35642254459640e+003	5.57317638216076e+001	1.26936025861699e+002
7.94328234724280e+003	5.53263503406817e+001	1.24504197257180e+002
8.57695898590892e+003	5.48956137265258e+001	1.22089459051498e+002
9.26118728128791e+003	5.44403452140274e+001	1.19701078203801e+002
9.99999999999998e+003	5.39615062576524e+001	1.17347017547642e+002
1.07977516232771e+004	5.34601798229307e+001	1.15033789499349e+002
1.16591440117983e+004	5.29375198774710e+001	1.12766402373571e+002
1.25892541179416e+004	5.23947023261089e+001	1.10548375861038e+002
1.35935639087852e+004	5.18328797059518e+001	1.08381825334138e+002
1.46779926762207e+004	5.12531415159419e+001	1.06267599788886e+002
1.58489319246111e+004	5.06564811624029e+001	1.04205462227753e+002
1.71132830416178e+004	5.00437700408629e+001	1.02194299171268e+002
1.84784979742229e+004	4.94157387660378e+001	1.00232347718571e+002
1.99526231496887e+004	4.87729653703279e+001	9.83174440614575e+001
2.15443469003188e+004	4.81158701744651e+001	9.64472550646043e+001
2.32630506715362e+004	4.74447170898967e+001	9.46195305634961e+001
2.51188643150957e+004	4.67596212328738e+001	9.28323409678330e+001
2.71227257933202e+004	4.60605628802987e+001	9.10843077791838e+001
2.92864456462523e+004	4.53474079195006e+001	8.93748162181831e+001
3.16227766016837e+004	4.46199349891186e+001	8.77042335852391e+001
3.41454887383359e+004	4.38778694162122e+001	8.60740335613658e+001
3.68694506451957e+004	4.31209237949374e+001	8.44869673609498e+001
3.98107170553496e+004	4.23488445872655e+001	8.29471170222765e+001
4.29866234708227e+004	4.15614635005003e+001	8.14599084215546e+001
4.64158883361277e+004	4.07587515733774e+001	8.00320401614702e+001
5.01187233627271e+004	3.99408730920896e+001	7.86713225269371e+001
5.41169526546462e+004	3.91082356362672e+001	7.73864207329020e+001
5.84341413373516e+004	3.82615320914553e+001	7.61865049995175e+001
6.30957344480192e+004	3.74017702616867e+001	7.50808182569312e+001
6.81292069057960e+004	3.65302861754945e+001	7.40781829010558e+001
7.35642254459640e+004	3.56487380914642e+001	7.31864765575299e+001
7.94328234724280e+004	3.47590797192995e+001	7.24121138941173e+001
8.57695898590892e+004	3.38635129686249e+001	7.17595743751024e+001
9.26118728128791e+004	3.29644225527639e+001	7.12310149127495e+001
9.99999999999998e+004	3.20642965616582e+001	7.08260002510100e+001
1.07977516232771e+005	3.11656386077204e+001	7.05413743622553e+001
1.16591440117983e+005	3.02708780061910e+001	7.03712834304446e+001
1.25892541179416e+005	2.93822846585831e+001	7.03073298649531e+001
1.35935639087852e+005	2.85018947708662e+001	7.03389620324226e+001
1.46779926762207e+005	2.76314523659924e+001	7.04537073146652e+001
1.58489319246111e+005	2.67723698889608e+001	7.06378021076153e+001
1.71132830416178e+005	2.59257092627358e+001	7.08766932555606e+001
1.84784979742229e+005	2.50921828280085e+001	7.11553720081433e+001
1.99526231496887e+005	2.42721718926895e+001	7.14589922306757e+001
2.15443469003188e+005	2.34657593840607e+001	7.17731572874189e+001
2.32630506715362e+005	2.26727723994681e+001	7.20842236754572e+001
2.51188643150957e+005	2.18928303205706e+001	7.23794935521505e+001
2.71227257933202e+005	2.11253945080625e+001	7.26473155830365e+001
2.92864456462523e+005	2.03698162719110e+001	7.28771025782809e+001
3.16227766016837e+005	1.96253806618804e+001	7.30592783251852e+001
3.41454887383359e+005	1.88913444891413e+001	7.31851675796417e+001
3.68694506451957e+005	1.81669677544646e+001	7.32468427658810e+001
3.98107170553496e+005	1.74515382537323e+001	7.32369391091966e+001
4.29866234708227e+005	1.67443895236234e+001	7.31484472548399e+001
4.64158883361277e+005	1.60449124795641e+001	7.29744893971270e+001
5.01187233627271e+005	1.53525610937857e+001	7.27080819189279e+001
5.41169526546462e+005	1.46668522902849e+001	7.23418153935318e+001
5.84341413373516e+005	1.39873598928140e+001	7.18678661254396e+001
6.30957344480192e+005	1.33137019721152e+001	7.12773639874450e+001
6.81292069057960e+005	1.26455202488875e+001	7.05600829566351e+001
7.35642254459640e+005	1.19824493117060e+001	6.97044494423565e+001
7.94328234724280e+005	1.13240722417611e+001	6.86967551015022e+001
8.57695898590892e+005	1.06698577036371e+001	6.75215180901387e+001
9.26118728128791e+005	1.00190717073438e+001	6.61596727058955e+001
9.99999999999998e+005	9.37065494339262e+000	6.45894015515829e+001
1.07977516232771e+006	8.72305430728770e+000	6.27857801051911e+001
1.16591440117983e+006	8.07399542326342e+000	6.07193356710082e+001
1.25892541179416e+006	7.42018325515830e+000	5.83575806392120e+001
1.35935639087852e+006	6.75692352491933e+000	5.56650810278713e+001
1.46779926762207e+006	6.07767374653922e+000	5.26053859804984e+001
1.58489319246111e+006	5.37356753765696e+000	4.91443882222900e+001
1.71132830416178e+006	4.63301772187091e+000	4.52558327824658e+001
1.84784979742229e+006	3.84159309004877e+000	4.09293163078040e+001
1.99526231496887e+006	2.98245478838527e+000	3.61803521094759e+001
2.15443469003188e+006	2.03765674309936e+000	3.10606130306782e+001
2.32630506715362e+006	9.90442577778226e-001	2.56643624870094e+001
2.51188643150957e+006	-1.71762890656380e-001	2.01283592817266e+001
2.71227257933202e+006	-1.45452307620745e+000	1.46164221969268e+001
2.92864456462523e+006	-2.85483606722208e+000	9.30009526443787e+000
3.16227766016837e+006	-4.36156998127679e+000	4.33259090153520e+000
3.41454887383359e+006	-5.95768717531107e+000	-1.69734268553078e-001
3.68694506451957e+006	-7.62329361582766e+000	-4.13533326815853e+000
3.98107170553496e+006	-9.33843981122032e+000	-7.53506238814907e+000
4.29866234708227e+006	-1.10850399915677e+001	-1.03734816285744e+001
4.64158883361277e+006	-1.28478168501449e+001	-1.26788907741555e+001
5.01187233627271e+006	-1.46145052421570e+001	-1.44911709539365e+001
5.41169526546462e+006	-1.63756257101553e+001	-1.58602793168199e+001
5.84341413373516e+006	-1.81240771226510e+001	-1.68359832503123e+001
6.30957344480192e+006	-1.98547005435517e+001	-1.74677729001503e+001
6.81292069057960e+006	-2.15638875294607e+001	-1.78027137266102e+001
