Freq	Gain	Phase
1.00000000000000e-001	5.85444284986927e+001	1.79313209825346e+002
1.07977516232771e-001	5.85442952074250e+001	1.79243308446035e+002
1.16591440117983e-001	5.85441392471680e+001	1.79168948110814e+002
1.25892541179417e-001	5.85439569374075e+001	1.79089695190511e+002
1.35935639087853e-001	5.85437439786515e+001	1.79005077299658e+002
1.46779926762207e-001	5.85434953466306e+001	1.78914602390655e+002
1.58489319246111e-001	5.85432051784854e+001	1.78817734513623e+002
1.71132830416178e-001	5.85428666310321e+001	1.78713912523093e+002
1.84784979742229e-001	5.85424717247918e+001	1.78602518234252e+002
1.99526231496888e-001	5.85420111511442e+001	1.78482909073978e+002
2.15443469003188e-001	5.85414740594619e+001	1.78354378582444e+002
2.32630506715363e-001	5.85408478022369e+001	1.78216152619791e+002
2.51188643150958e-001	5.85401176313945e+001	1.78067457221740e+002
2.71227257933203e-001	5.85392663657363e+001	1.77907413595165e+002
2.92864456462524e-001	5.85382739858093e+001	1.77735076654249e+002
3.16227766016838e-001	5.85371171652281e+001	1.77549458886752e+002
3.41454887383360e-001	5.85357687368421e+001	1.77349453253340e+002
3.68694506451958e-001	5.85341970574206e+001	1.77133914003532e+002
3.98107170553497e-001	5.85323652820071e+001	1.76901622153902e+002
4.29866234708228e-001	5.85302305241856e+001	1.76651193175089e+002
4.64158883361278e-001	5.85277428686642e+001	1.76381200179184e+002
5.01187233627272e-001	5.85248442414046e+001	1.76090138711927e+002
5.41169526546464e-001	5.85214671049536e+001	1.75776333887277e+002
5.84341413373518e-001	5.85175329468856e+001	1.75437933771835e+002
6.30957344480193e-001	5.85129505287613e+001	1.75073161720826e+002
6.81292069057961e-001	5.85076139029573e+001	1.74679936116677e+002
7.35642254459641e-001	5.85014001111562e+001	1.74256008288108e+002
7.94328234724282e-001	5.84941665557027e+001	1.73799187393065e+002
8.57695898590894e-001	5.84857480235307e+001	1.73306962240214e+002
9.26118728128794e-001	5.84759532858649e+001	1.72776786087648e+002
1.00000000000000e+000	5.84645612774943e+001	1.72205730517721e+002
1.07977516232771e+000	5.84513167859266e+001	1.71590947224872e+002
1.16591440117983e+000	5.84359256635908e+001	1.70929442712261e+002
1.25892541179417e+000	5.84180495271417e+001	1.70218087255120e+002
1.35935639087853e+000	5.83972999621514e+001	1.69453398957232e+002
1.46779926762207e+000	5.83732322556272e+001	1.68631967059544e+002
1.58489319246111e+000	5.83453387442761e+001	1.67750595438376e+002
1.71132830416178e+000	5.83130418992028e+001	1.66805304923515e+002
1.84784979742229e+000	5.82756873171439e+001	1.65792935420509e+002
1.99526231496888e+000	5.82325369128153e+001	1.64709941879651e+002
2.15443469003188e+000	5.81827626624825e+001	1.63552815364004e+002
2.32630506715363e+000	5.81254413874466e+001	1.62318979970453e+002
2.51188643150958e+000	5.80595511717802e+001	1.61005405094068e+002
2.71227257933203e+000	5.79839701571600e+001	1.59609995421402e+002
2.92864456462524e+000	5.78974785343033e+001	1.58131270286292e+002
3.16227766016838e+000	5.77987646430118e+001	1.56568055365665e+002
3.41454887383360e+000	5.76864361152613e+001	1.54920447392473e+002
3.68694506451958e+000	5.75590368691796e+001	1.53190088757367e+002
3.98107170553497e+000	5.74150705392811e+001	1.51378936997081e+002
4.29866234708228e+000	5.72530306334769e+001	1.49490774062744e+002
4.64158883361278e+000	5.70714370486154e+001	1.47531299934717e+002
5.01187233627272e+000	5.68688779292230e+001	1.45506796608393e+002
5.41169526546464e+000	5.66440551893859e+001	1.43425491202893e+002
5.84341413373518e+000	5.63958311148192e+001	1.41297696794429e+002
6.30957344480193e+000	5.61232728821866e+001	1.39132885875132e+002
6.81292069057961e+000	5.58256918305559e+001	1.36944282525462e+002
7.35642254459641e+000	5.55026737566690e+001	1.34743497050248e+002
7.94328234724281e+000	5.51540979111102e+001	1.32543857018545e+002
8.57695898590894e+000	5.47801425406617e+001	1.30357732739600e+002
9.26118728128793e+000	5.43812766716872e+001	1.28197546484074e+002
1.00000000000000e+001	5.39582388207693e+001	1.26075889681884e+002
1.07977516232771e+001	5.35120045797244e+001	1.24002469806966e+002
1.16591440117983e+001	5.30437462388237e+001	1.21987565506656e+002
1.25892541179417e+001	5.25547874500032e+001	1.20037734782540e+002
1.35935639087853e+001	5.20465567303601e+001	1.18160341216707e+002
1.46779926762207e+001	5.15205423923901e+001	1.16359408361288e+002
1.58489319246111e+001	5.09782516628719e+001	1.14639355563391e+002
1.71132830416178e+001	5.04211752866915e+001	1.13002338814047e+002
1.84784979742229e+001	4.98507586789959e+001	1.11448384524365e+002
1.99526231496888e+001	4.92683798034130e+001	1.09978302733891e+002
2.15443469003188e+001	4.86753333028711e+001	1.08590166550918e+002
2.32630506715363e+001	4.80728204527605e+001	1.07282230938417e+002
2.51188643150958e+001	4.74619439200984e+001	1.06053082410214e+002
2.71227257933203e+001	4.68437064286722e+001	1.04899935422837e+002
2.92864456462524e+001	4.62190124794422e+001	1.03817833399238e+002
3.16227766016838e+001	4.55886723780602e+001	1.02805274183595e+002
3.41454887383360e+001	4.49534076164546e+001	1.01858777472766e+002
3.68694506451957e+001	4.43138572760641e+001	1.00972957687114e+002
3.98107170553497e+001	4.36705849730369e+001	1.00146103558620e+002
4.29866234708228e+001	4.30240857899364e+001	9.93747037301092e+001
4.64158883361278e+001	4.23747931622697e+001	9.86516421851653e+001
5.01187233627272e+001	4.17230855522384e+001	9.79772663105410e+001
5.41169526546464e+001	4.10692925385761e+001	9.73483643783215e+001
5.84341413373518e+001	4.04137005198486e+001	9.67581783535839e+001
6.30957344480193e+001	3.97565580226664e+001	9.62074531160855e+001
6.81292069057961e+001	3.90980803050899e+001	9.56933987727595e+001
7.35642254459641e+001	3.84384535647531e+001	9.52096913205802e+001
7.94328234724281e+001	3.77778387974198e+001	9.47575123129209e+001
8.57695898590894e+001	3.71163749973688e+001	9.43345038377055e+001
9.26118728128793e+001	3.64541821088063e+001	9.39310831268150e+001
1.00000000000000e+002	3.57913636785127e+001	9.35525194908963e+001
1.07977516232771e+002	3.51280090173911e+001	9.31968449344616e+001
1.16591440117983e+002	3.44641951428615e+001	9.28622081315888e+001
1.25892541179417e+002	3.37999885721019e+001	9.25395062844121e+001
1.35935639087853e+002	3.31354467425692e+001	9.22270996878762e+001
1.46779926762207e+002	3.24706194232948e+001	9.19381653561646e+001
1.58489319246111e+002	3.18055496171289e+001	9.16491632914521e+001
1.71132830416178e+002	3.11402748797917e+001	9.13807996497337e+001
1.84784979742229e+002	3.04748277614441e+001	9.11096886746921e+001
1.99526231496888e+002	2.98092370061357e+001	9.08493162136926e+001
2.15443469003188e+002	2.91435279755622e+001	9.05985067095007e+001
2.32630506715363e+002	2.84777230953484e+001	9.03561387647948e+001
2.51188643150958e+002	2.78118426897481e+001	9.01064171969261e+001
2.71227257933203e+002	2.71459052248312e+001	8.98630326973232e+001
2.92864456462524e+002	2.64799280225441e+001	8.96102687071210e+001
3.16227766016838e+002	2.58139271850002e+001	8.93618832739773e+001
3.41454887383360e+002	2.51479185006182e+001	8.91022162534728e+001
3.68694506451957e+002	2.44819171901318e+001	8.88303495983322e+001
3.98107170553497e+002	2.38159394677022e+001	8.85895459052370e+001
4.29866234708228e+002	2.31500012739731e+001	8.82905811992383e+001
4.64158883361278e+002	2.24841199293375e+001	8.80208987799061e+001
5.01187233627272e+002	2.18183136255552e+001	8.77207236920025e+001
5.41169526546464e+002	2.11526026575206e+001	8.74186074617288e+001
5.84341413373517e+002	2.04870084922778e+001	8.70547611789475e+001
6.30957344480193e+002	1.98215598918866e+001	8.67460439898578e+001
6.81292069057961e+002	1.91562816477350e+001	8.63737468118930e+001
7.35642254459641e+002	1.84912069271586e+001	8.60252430623381e+001
7.94328234724281e+002	1.78263750014346e+001	8.56112162431632e+001
8.57695898590894e+002	1.71618262089437e+001	8.51306487464165e+001
9.26118728128793e+002	1.64976133596881e+001	8.47002613008568e+001
1.00000000000000e+003	1.58337841825433e+001	8.41422975486845e+001
1.07977516232771e+003	1.51704205361059e+001	8.36322811823444e+001
1.16591440117983e+003	1.45075915389915e+001	8.31101394379554e+001
1.25892541179417e+003	1.38453759194595e+001	8.24568624986212e+001
1.35935639087853e+003	1.31838948088959e+001	8.18478255537190e+001
1.46779926762207e+003	1.25232518338846e+001	8.12228023535940e+001
1.58489319246111e+003	1.18635919998313e+001	8.04626277249673e+001
1.71132830416178e+003	1.12050689781763e+001	7.96836365207935e+001
1.84784979742229e+003	1.05478724992356e+001	7.87665700176145e+001
1.99526231496888e+003	9.89220784970611e+000	7.78276816483704e+001
2.15443469003188e+003	9.23832453905229e+000	7.68654245608948e+001
2.32630506715363e+003	8.58649516336622e+000	7.57604675571735e+001
2.51188643150958e+003	7.93704971954848e+000	7.46290394318141e+001
2.71227257933203e+003	7.29034232834670e+000	7.33518596734827e+001
2.92864456462524e+003	6.64681312307122e+000	7.21630456406237e+001
3.16227766016838e+003	6.00692223170677e+000	7.07079658135781e+001
3.41454887383360e+003	5.37120348352188e+000	6.92210380664386e+001
3.68694506451957e+003	4.74014988844659e+000	6.72302900921246e+001
3.98107170553497e+003	4.11478576683071e+000	6.56773589088696e+001
4.29866234708228e+003	3.49553502814861e+000	6.38555053545916e+001
4.64158883361278e+003	2.88330206574962e+000	6.20007288696509e+001
5.01187233627272e+003	2.27901335488645e+000	5.96430937982174e+001
5.41169526546464e+003	1.68366010715723e+000	5.74912523338717e+001
5.84341413373518e+003	1.09823592358799e+000	5.50771648103165e+001
6.30957344480193e+003	5.23846366021532e-001	5.24051092344247e+001
6.81292069057961e+003	-3.84064064833111e-002	4.97163307969078e+001
7.35642254459641e+003	-5.87467793154358e-001	4.65470727689326e+001
7.94328234724281e+003	-1.12214151154710e+000	4.38486375522691e+001
8.57695898590894e+003	-1.64152697743774e+000	4.02189195250994e+001
9.26118728128794e+003	-2.14471849457592e+000	3.70844028374758e+001
1.00000000000000e+004	-2.63123700364942e+000	3.30473523521029e+001
1.07977516232771e+004	-3.10062983622879e+000	2.90676663209670e+001
1.16591440117983e+004	-3.55210530767254e+000	2.56363681353540e+001
1.25892541179417e+004	-3.98695776869064e+000	2.13625287066875e+001
1.35935639087853e+004	-4.40544228158277e+000	1.72125634864983e+001
1.46779926762207e+004	-4.80930624726291e+000	1.22707279638513e+001
1.58489319246111e+004	-5.19913863841159e+000	8.44933218688470e+000
1.71132830416178e+004	-5.57851920100131e+000	3.89440045932342e+000
1.84784979742229e+004	-5.94948388966688e+000	-1.36196593137291e+000
1.99526231496888e+004	-6.31615406500759e+000	-6.34356291687328e+000
2.15443469003188e+004	-6.68438900962458e+000	-1.28973595433301e+001
2.32630506715363e+004	-7.05277530865493e+000	-1.72163776107494e+001
2.51188643150958e+004	-7.43277530717192e+000	-2.30240433539459e+001
2.71227257933203e+004	-7.82693021012977e+000	-2.83883307133391e+001
2.92864456462524e+004	-8.24220704697843e+000	-3.32549392095123e+001
3.16227766016838e+004	-8.68358701282691e+000	-3.94459623758281e+001
3.41454887383360e+004	-9.15823928177304e+000	-4.50084729902202e+001
3.68694506451958e+004	-9.67062434223082e+000	-5.17472191572724e+001
3.98107170553497e+004	-1.02269055365905e+001	-5.76909293616231e+001
4.29866234708228e+004	-1.08326363952296e+001	-6.46248407068336e+001
4.64158883361278e+004	-1.14885524249592e+001	-7.05591755342785e+001
5.01187233627272e+004	-1.22011089120404e+001	-7.72609445923771e+001
5.41169526546464e+004	-1.29650273695067e+001	-8.27258329659072e+001
5.84341413373518e+004	-1.37842330568258e+001	-8.68251068560520e+001
6.30957344480193e+004	-1.46580611416258e+001	-9.31908813466357e+001
6.81292069057961e+004	-1.55837241376733e+001	-9.79220733514957e+001
7.35642254459641e+004	-1.65583856183452e+001	-1.04643708285543e+002
7.94328234724282e+004	-1.75758400818924e+001	-1.09448663266336e+002
8.57695898590894e+004	-1.86345238851876e+001	-1.12190183130869e+002
9.26118728128793e+004	-1.97357399762931e+001	-1.20242634044423e+002
1.00000000000000e+005	-2.08703931468776e+001	-1.18399922545526e+002
1.07977516232771e+005	-2.20223618376364e+001	-1.29058279311249e+002
1.16591440117983e+005	-2.31885675121786e+001	-1.29480090259342e+002
1.25892541179417e+005	-2.43929217753545e+001	-1.34517458063221e+002
1.35935639087853e+005	-2.56098572770162e+001	-1.36442973675464e+002
1.46779926762207e+005	-2.68610992909648e+001	-1.42560227885625e+002
1.58489319246111e+005	-2.82452861656738e+001	-1.52521783094841e+002
1.71132830416178e+005	-2.93581587356885e+001	-1.43843101525299e+002
1.84784979742229e+005	-3.06886197089289e+001	-1.53492119250752e+002
1.99526231496888e+005	-3.19470221298522e+001	-1.43755889393841e+002
2.15443469003188e+005	-3.32901611594866e+001	-1.59282851145510e+002
2.32630506715363e+005	-3.44989664797817e+001	-1.54799941390117e+002
2.51188643150958e+005	-3.63124308869255e+001	-1.74102806921828e+002
2.71227257933203e+005	-3.71109407331986e+001	-1.59011130768936e+002
2.92864456462524e+005	-3.84494151130923e+001	-1.51864423194177e+002
3.16227766016838e+005	-3.97648597083039e+001	-1.52936395201290e+002
3.41454887383360e+005	-4.10410662030463e+001	-1.61696758358680e+002
3.68694506451958e+005	-4.25840901998052e+001	-1.47740677733574e+002
3.98107170553497e+005	-4.37367811561454e+001	-1.54928698640514e+002
4.29866234708228e+005	-4.55263581888665e+001	1.77629330320765e+002
4.64158883361278e+005	-4.64087115208855e+001	-1.71415255515034e+002
5.01187233627272e+005	-4.79272828176407e+001	-1.49362498331545e+002
5.41169526546464e+005	-4.91268960156521e+001	-1.75170997360684e+002
5.84341413373517e+005	-5.03435256438738e+001	-1.59013898054371e+002
6.30957344480193e+005	-5.16709503568427e+001	-1.59384441263117e+002
6.81292069057961e+005	-5.30861159457509e+001	-1.75251187140354e+002
7.35642254459641e+005	-5.47818988857427e+001	-1.46329515854412e+002
7.94328234724281e+005	-5.56699957683680e+001	-1.59171113468108e+002
8.57695898590894e+005	-5.71053258321206e+001	-1.54618695846857e+002
9.26118728128793e+005	-5.90288938718260e+001	1.71040614606204e+002
1.00000000000000e+006	-6.13149484475820e+001	1.59976850749623e+002